# Region type : patch outletFuelElement
# Faces       : 12
# Area        : 1.905868e-03
# Scale factor: 1.000000e+00
# Time        	areaAverage(magU)	areaAverage(p)	areaAverage(T)	areaAverage(alphaRhoPhi)	areaAverage(alphaPhi)
11            	6.341852e+01	3.447280e+06	3.443053e+02	7.394062e-03	3.078406e-03
12            	5.122760e+01	3.447280e+06	2.854508e+02	7.202529e-03	2.485310e-03
13            	4.470978e+01	3.447280e+06	2.534875e+02	7.082541e-03	2.168774e-03
14            	4.007456e+01	3.447280e+06	2.305365e+02	6.986412e-03	1.943800e-03
15            	3.640149e+01	3.447280e+06	2.122630e+02	6.899455e-03	1.765332e-03
16            	3.334743e+01	3.447280e+06	1.968996e+02	6.823089e-03	1.617061e-03
17            	3.071957e+01	3.447280e+06	1.836662e+02	6.747993e-03	1.489181e-03
18            	2.844588e+01	3.447280e+06	1.720830e+02	6.682242e-03	1.378867e-03
19            	2.645616e+01	3.447280e+06	1.618913e+02	6.621368e-03	1.282419e-03
20            	2.470152e+01	3.447280e+06	1.529210e+02	6.557776e-03	1.196645e-03
21            	2.316465e+01	3.447280e+06	1.449765e+02	6.503647e-03	1.121944e-03
22            	2.181152e+01	3.447280e+06	1.379395e+02	6.456406e-03	1.056515e-03
23            	2.061883e+01	3.447280e+06	1.317145e+02	6.410793e-03	9.984861e-04
24            	1.956441e+01	3.447280e+06	1.261994e+02	6.369731e-03	9.473539e-04
25            	1.863006e+01	3.447280e+06	1.213207e+02	6.329381e-03	9.018281e-04
26            	1.780306e+01	3.447280e+06	1.170015e+02	6.290600e-03	8.613485e-04
27            	1.707953e+01	3.447280e+06	1.131604e+02	6.262668e-03	8.264225e-04
28            	1.643114e+01	3.447280e+06	1.097633e+02	6.232999e-03	7.949974e-04
29            	1.585867e+01	3.447280e+06	1.067576e+02	6.203108e-03	7.668442e-04
30            	1.535616e+01	3.447280e+06	1.040874e+02	6.180029e-03	7.423501e-04
31            	1.490613e+01	3.447280e+06	1.017215e+02	6.158222e-03	7.205385e-04
32            	1.451190e+01	3.447280e+06	9.962435e+01	6.138374e-03	7.011882e-04
33            	1.416366e+01	3.447280e+06	9.776463e+01	6.121016e-03	6.840881e-04
34            	1.388063e+01	3.447280e+06	9.610489e+01	6.114489e-03	6.698301e-04
35            	1.362931e+01	3.447280e+06	9.462824e+01	6.112824e-03	6.575727e-04
36            	1.340619e+01	3.447280e+06	9.332040e+01	6.111357e-03	6.466880e-04
37            	1.320825e+01	3.447280e+06	9.216271e+01	6.110065e-03	6.370294e-04
38            	1.303276e+01	3.447280e+06	9.113808e+01	6.108960e-03	6.284647e-04
39            	1.287719e+01	3.447280e+06	9.023125e+01	6.108000e-03	6.208701e-04
40            	1.273928e+01	3.447280e+06	8.942868e+01	6.107165e-03	6.141368e-04
41            	1.261706e+01	3.447280e+06	8.871836e+01	6.106452e-03	6.081690e-04
42            	1.250877e+01	3.447280e+06	8.808969e+01	6.105819e-03	6.028783e-04
43            	1.241280e+01	3.447280e+06	8.753329e+01	6.105279e-03	5.981904e-04
44            	1.232773e+01	3.447280e+06	8.704083e+01	6.104790e-03	5.940345e-04
45            	1.225246e+01	3.447280e+06	8.660498e+01	6.104403e-03	5.903562e-04
46            	1.218578e+01	3.447280e+06	8.621924e+01	6.103994e-03	5.870908e-04
47            	1.212677e+01	3.447280e+06	8.587787e+01	6.103705e-03	5.842049e-04
48            	1.207438e+01	3.447280e+06	8.557576e+01	6.103431e-03	5.816468e-04
49            	1.202813e+01	3.447280e+06	8.530843e+01	6.103209e-03	5.793833e-04
50            	1.198715e+01	3.447280e+06	8.507187e+01	6.103005e-03	5.773782e-04
51            	1.195086e+01	3.447280e+06	8.486257e+01	6.102824e-03	5.756029e-04
52            	1.191876e+01	3.447280e+06	8.467739e+01	6.102670e-03	5.740318e-04
53            	1.189038e+01	3.447280e+06	8.451357e+01	6.102552e-03	5.726429e-04
54            	1.186524e+01	3.447280e+06	8.436865e+01	6.102424e-03	5.714115e-04
55            	1.184303e+01	3.447280e+06	8.424047e+01	6.102333e-03	5.703239e-04
56            	1.182335e+01	3.447280e+06	8.412710e+01	6.102254e-03	5.693619e-04
57            	1.180599e+01	3.447280e+06	8.402684e+01	6.102160e-03	5.685084e-04
58            	1.179060e+01	3.447280e+06	8.393819e+01	6.102086e-03	5.677544e-04
59            	1.177700e+01	3.447280e+06	8.385981e+01	6.102035e-03	5.670890e-04
60            	1.176500e+01	3.447280e+06	8.379051e+01	6.101984e-03	5.665000e-04
61            	1.175436e+01	3.447280e+06	8.372925e+01	6.101942e-03	5.659794e-04
62            	1.174498e+01	3.447280e+06	8.367510e+01	6.101903e-03	5.655190e-04
63            	1.173667e+01	3.447280e+06	8.362724e+01	6.101866e-03	5.651119e-04
64            	1.172935e+01	3.447280e+06	8.358495e+01	6.101841e-03	5.647527e-04
65            	1.172286e+01	3.447280e+06	8.354758e+01	6.101810e-03	5.644345e-04
66            	1.171715e+01	3.447280e+06	8.351457e+01	6.101789e-03	5.641539e-04
67            	1.171209e+01	3.447280e+06	8.348540e+01	6.101767e-03	5.639057e-04
68            	1.170762e+01	3.447280e+06	8.345964e+01	6.101749e-03	5.636866e-04
69            	1.170369e+01	3.447280e+06	8.343688e+01	6.101733e-03	5.634930e-04
70            	1.170020e+01	3.447280e+06	8.341678e+01	6.101720e-03	5.633221e-04
71            	1.169713e+01	3.447280e+06	8.339904e+01	6.101707e-03	5.631711e-04
72            	1.169442e+01	3.447280e+06	8.338337e+01	6.101697e-03	5.630378e-04
73            	1.169202e+01	3.447280e+06	8.336953e+01	6.101689e-03	5.629202e-04
74            	1.168991e+01	3.447280e+06	8.335732e+01	6.101680e-03	5.628163e-04
75            	1.168804e+01	3.447280e+06	8.334654e+01	6.101674e-03	5.627246e-04
76            	1.168639e+01	3.447280e+06	8.333703e+01	6.101668e-03	5.626438e-04
77            	1.168494e+01	3.447280e+06	8.332863e+01	6.101661e-03	5.625722e-04
78            	1.168366e+01	3.447280e+06	8.332122e+01	6.101657e-03	5.625093e-04
79            	1.168253e+01	3.447280e+06	8.331468e+01	6.101654e-03	5.624538e-04
80            	1.168153e+01	3.447280e+06	8.330892e+01	6.101649e-03	5.624046e-04
81            	1.168065e+01	3.447280e+06	8.330383e+01	6.101647e-03	5.623614e-04
82            	1.167987e+01	3.447280e+06	8.329934e+01	6.101644e-03	5.623233e-04
83            	1.167919e+01	3.447280e+06	8.329538e+01	6.101641e-03	5.622896e-04
84            	1.167859e+01	3.447280e+06	8.329189e+01	6.101639e-03	5.622599e-04
85            	1.167806e+01	3.447280e+06	8.328881e+01	6.101638e-03	5.622338e-04
86            	1.167759e+01	3.447280e+06	8.328610e+01	6.101636e-03	5.622107e-04
87            	1.167717e+01	3.447280e+06	8.328370e+01	6.101634e-03	5.621903e-04
88            	1.167681e+01	3.447280e+06	8.328160e+01	6.101633e-03	5.621724e-04
89            	1.167649e+01	3.447280e+06	8.327974e+01	6.101632e-03	5.621566e-04
90            	1.167620e+01	3.447280e+06	8.327810e+01	6.101631e-03	5.621426e-04
91            	1.167596e+01	3.447280e+06	8.327665e+01	6.101630e-03	5.621304e-04
92            	1.167574e+01	3.447280e+06	8.327538e+01	6.101630e-03	5.621196e-04
93            	1.167554e+01	3.447280e+06	8.327426e+01	6.101629e-03	5.621100e-04
94            	1.167537e+01	3.447280e+06	8.327327e+01	6.101629e-03	5.621016e-04
95            	1.167522e+01	3.447280e+06	8.327240e+01	6.101628e-03	5.620942e-04
96            	1.167509e+01	3.447280e+06	8.327163e+01	6.101628e-03	5.620877e-04
97            	1.167497e+01	3.447280e+06	8.327095e+01	6.101627e-03	5.620819e-04
98            	1.167487e+01	3.447280e+06	8.327036e+01	6.101627e-03	5.620769e-04
99            	1.167478e+01	3.447280e+06	8.326983e+01	6.101627e-03	5.620724e-04
100           	1.167470e+01	3.447280e+06	8.326937e+01	6.101626e-03	5.620685e-04
